##TITLE=   nmr_data/ibuprofen j_ave.jdx
##JCAMP-DX=         6.0
##DATA TYPE=        NMR FID
##DATA CLASS=       NTUPLES
##ORIGIN=  John Price
##OWNER=   Q Magnetics
##LONG DATE= 2021-06-10T02:22:36.494243
##SPECTROMETER/DATA SYSTEM= Q Magnetics 125
##SAMPLE DESCRIPTION= water
##.SOLVENT NAME= Neat
##.SHIFT REFERENCE= INTERNAL,  ,20000.5  ,0
##.OBSERVE FREQUENCY= 123.8826  $$ MHz
##.OBSERVE NUCLEUS= ^1H
##.ACQUISITION MODE= SIMULTANEOUS
##.DELAY= (290.0,290.0)  $$ us
##.PULSE SEQUENCE= NScanPulseAcquire
##$QM_RUN_NOTES= 250 mM in CdCl3 w TMS, new align.py
##$QM_RUN_TYPE= nscan_pulse_acquire
##$QM_TRACK_TX= False
##$QM_NSCANS= 500
##$QM_EQUILIB_SCANS= 2
##$QM_PULSE_LENGTH= 20.0  $$ us
##$QM_ACQUISITION_SAMPLES= 40000
##$QM_RX_RECOVERY_1= 80.0  $$ us
##$QM_RX_RECOVERY_2= 200.0  $$ us
##$QM_T1_DELAY= 15.0  $$ s
##$QM_SPECTRAL_WIDTH= 10.0  $$ kHz
##$QM_DECIMATION= 16000
##$QM_FILTER_ATTENUATION= 1/2**21
##$QM_GAIN= 16000**2/2**21 = 122.0703125
##$QM_ADC_SAMPLING_CLOCK= 160.0  $$ MHz
##$QM_HARDWARE_FILTER= CIC 2nd order, differential delay = 1
##$QM_SOFTWARE_FILTER= None
##NTUPLES=       NMR FID
##VAR_NAME=         TIME,        FID/REAL,   FID/IMAG,    PAGE NUMBER
##SYMBOL=           X,           R,          I,           N
##VAR_TYPE=         INDEPENDENT, DEPENDENT,  DEPENDENT,   PAGE
##VAR_FORM=         AFFN,        ASDF,       ASDF,        AFFN
##VAR_DIM=          40000,   40000,   40000,   2
##UNITS=            SECONDS, ARBITRARY UNITS, ARBITRARY UNITS,
##FIRST=            0,    -1973.0809823166692,    394.2546185805657,     1
##LAST=       3.9999,    0.22209643210343316,    0.08044902047211379,     2
##MIN=              0,    -1973.0809823166692,    -1412.9435028874416,     1
##MAX=        3.9999,    1189.7861012588364,    1484.8452004411863,     2
##FACTOR=           1,    1,    1,     1
##PAGE=  N=1
##DATA TABLE=   (X++(R..R)), XYDATA
0a973h94E02A142F45d13a037f60C84A189A049C9
0.001200a065a458i35aF04E29C9b63b1E69I68G72
0.002400F1f66i06e52F4D70D48A70AA47D78F54
0.003600D40h5e95g73e59a84E0B9i8g8A82E07
0.004800E87B46c67h71i30e24C8C63B85a0a65C0
0.006000D47G27E93H2d69g02e16a12B05B98B69C07
0.007200D58E64D19A4d15e69c61b0A10i5d05d32
0.008400fF17I30F04a95i11a030e21A47D01G5d45
0.009600e74g2G22A150H08i6h90i87c74D00F94C15
0.010800c21e74a45F50A165I49A26g14a004f29A5C91
0.012000B68a18c20i9C59F29D29a31f35g24c87C6
0.013200A62h6d10d02F4F95I82F28a77h70i52c82
0.014400C78G28D21b23e87b91D78A094A011B22g14a110
0.015600g03A30F95E61h3f11e07A72H43H98B23f95
0.016800a167h70i2E32E53F2d22d39B3E46F65B73
0.018000c12f40e18a28A78B08G6D2B19D63E04B28
0.019200a90d39c38a0B31A70a15c23b08A82E46E68
0.020400B01c01e92e13a97F3H4g9a99a06A53C64
0.021600C36G2b32c59b47c2H3B3a10a28E9C49
0.022800E15D02F7b55c41a58I8A88B8b14b69a2
0.024000C95F12D08a20e91f38b26B98D73A24d62g54
0.025200d32C13I05H35A11g28a034e76B63G99F12i7
0.026400f89f33D1G71I43D16c80h03e50A09E89E04
0.027600a6d63d18G9E80F32A73d18f68d08I6C94
0.028800B50a67d48c24A01D57D28C5c93e12b50A46
0.030000C34A70a66c48a82B14E19D72I1c35d84b51
0.031200A68D39C59Hc14c42d7C32D91B96a10d30
0.032400d43a70A51B76A42a00b28a47D6A65A04g0
0.033600a93a64c0F0B1h3a12A1B00B77A41a12
0.034800b63a63A11C13B43e3c07b68F2D11D62A39
0.036000c01d89b60A87D62C12a39e02d59c8D01D87
0.037200A49c22e30c13A18C89B79h6c67c14A6C23
0.038400C38F3b44c01e9B55C57A50a81c41a79A77
0.039600D25C42a0c49c92a02B83D43B38a72d61c97
0.040800b6C51D28A39b86e04c36I0D28D01B8c89
0.042000e05b20B40D97C45h7d33d04a9C97E00B09
0.043200b25d41b67A30D10C42Ib87b93b5B55B96
0.044400G0b10b91a17A33B17F0a81b69a09A54B75
0.045600A32a53c28b37D0B59B30a0b41b49b3B37
0.046800C13A47a12b45a56E7B04A68Da27a13B6
0.048000A57A66D9h4a31g4A4D6af9h1a8
0.049200F5I2C3f5a22i1bF6D6d8a34a24
0.050400bA57B30A47d2b01b00c3A72B46A19a14
0.051600b56a69I8C35C38H3b36c68b06A09C12B25
0.052800g1c18b90fB91C43A00b34c80b25H4B71
0.054000A81h6b76b07F4B98B84C8b23b77h7A61
0.055200B46A00a30b22h5A65C05B11d0b38b26c2
0.056400A63A91C7a54b13h8A15B29A63b6a93b19
0.057600a04D7A20G2d0a19i8GA18A50H2c9
0.058800a31a32d6E8A08G2dd8a7F3A18I3
0.060000@i1a06d3C6F1A4d4d5B4I7I4
0.061200@a12a47g3D0H4A6i6a35d3A12A96
0.062400A22e5a90a67a0A40A48A4a31a45cA74
0.063600B28A10g8a80a21C2A32I2d0a32i1D5
0.064800A56A41A3a15a41e9D0F1ii4a05b3
0.066000H3A25G1b8i0g7a4C3B8a5d9c7
0.067200A6G1I1G2B8a6d3d6b5FB7B2
0.068400bb3a2C5H1H1A5g7a28i6hF1
0.069600E4a5g6f2B5A08A06A0a01a40g5B9
0.070800H2D6c0f3iH3A28G8b6i7g8@
0.072000E5D0b4f1b1F8A24H8a2i5i4b2
0.073200D0C3c8i7g7A5A08A18D0f0a03f5
0.074400DC6Fd9f7b4D7I3H4C8eb4
0.075600b5b5c1b8dB6D2B9GIC9F6
0.076800E0b2a05a33g4B6H8F6if0c4D8
0.078000A01F3d6a40a42e0E6I0D0c0c8B8
0.079200A05A10B3i2a42h8A8H4F5ed6i
0.080400G5A30I6a1a16a46h9AE7E1Ib0
0.081600a2B8F4F7B4d5a11a36a02a7G5A22
0.082800I2A0e3d4B8I7H2b8a57a98i8G6
0.084000B02A87E7g1i5a3H4H9a6a44a83i2
0.085200E6A47A26C7b7a8B7C9b0a13a53i8
0.086400A3I1H3B3a1B2H8A05B9i8a79a51
0.087600c2H0A10E8ddE9A16I8ba16a63
0.088800a18b9C6D7C4C9G2A00G6ah9a29
0.090000i9c7aa1c6b5D2A33A75A26@a31
0.091200a92a52d6E3H8D9a2c3B2A22A87A44
0.092400a2a98b89b12a2A74B16I8f6a23a6A65
0.093600B43A11a59c68c44i5A93C06A80d8a70g7
0.094800A34B51A40a30c46c31i8A68B69A62a7h6
0.096000A4A63A89B9b06c25b29FA95B04E9g8
0.097200f7H2B23B01bb54c69b65a9A94B41A27
0.098400a9g4bA14A53E8a24b70b79a39F4B11
0.099600B30A39B2c4a1D1D4c5a58b29a82c1
0.100800A39B34B12A13A2c7d6e6i0a30a33h1
0.102000dE7H5A01A33A63A38A7a65c02b88a15
0.103200I8B04A41cg6HA83B72A52a21c59c79
0.104400a68A05B41A71A0e8C9B01B44G7a98c75
0.105600c16g4A52A97F8g1e5A19B89B66A9b86
0.106800d24b96iB06B05C2a13g0A43C37C12C6
0.108000c14d88c59b4B70C23A30a14a88a6B56C85
0.109200B24a47d79e31b62A41D00C58I5a47a69B2
0.110400B34B47A1c07d59c21FB82C25A57c3f8
0.111600E9A89A48h2c34c98b10H9B78B45G2e1
0.112800fA46B22I4a75c85c59a18A52B57A55a2
0.114000f2F0B26B46E1b45d26c57i5A67B64A80
0.115200C7b1C9A29A32A3a50b46b22a17a1E6
0.116400A01A58B18B27A31e4b29b81a85b0H5F6
0.117600c3h7iA75C23B96F7b29d05c49a10A32
0.118800B12A04f3a10C2B57C55A99a41d38d73b13
0.120000A50C47B49b3b10a27A60C94C40a1d08e49
0.121200c31G0C47C13E7a49a06A33C21B38i0d11
0.122400d56a86A75C29A72a12b33d7B96D75B83a77
0.123600e62e74b04B58D64B90g3b91a72A67D15C39
0.124800b9d15e28b98H5C41C09G5a26a24E8B39
0.126000B34A6b65d07c09d3B04B88A92C1f0c1
0.127200E5I4B5a08b10b03a03B3A05A31A34A45
0.128400A44H5d9b04b74a96a2A48A65D3h9i5
0.129600F0B48B89A05a93c91c42h7A71B44A15e9
0.130800i5D3B16B33C9b28c52b30B8B06A65b1
0.132000a48f9A59C24B46d5c28c77a60A28B44A12
0.133200a15a95b2B60C88B12a63d45d04g5B73C56
0.134400A17b22c53a42B50E00C83c6d50e53b81A49
0.135600D09C29A1b60b60@B88C51A28b10d01c04
0.136800a1B38B59F7a38a59B6B43B77F3b42c95
0.138000b63E0B91B71B8b06b12A8B77C17G7b59
0.139200d12b53H3C13B51b5b51b08G6C46C42C8
0.140400c32d67b56A33C86C14Db69b77b7B54C29
0.141600A38a56c26b61d3A44A81I2bb1B1D6
0.142800Df8i8d5C8F5@i3a12hA50B28
0.144000A44e6b22b21e9A27A82F5a15a92h4A32
0.145200B76B13b4b58c01a16A48B83A74h5b79b36
0.146400B2B92C46A29a95c75b68C1B79B78D2b12
0.147600b58e8B07B95A20a72c21a90A06C03B17h5
0.148800c27b74E1C76D05H7c26d90b57A86D73C60
0.150000e5d20d23f3C55D77B05b30d67c17G7C81
0.151200C46B1c03c53i5B39C68A89a38c42b64A3
0.152400B57B75G4a64b47a24H4B07A54ha39a40
0.153600c4G2H9A9e5e7A3H2G2b0a14a17
0.154800a0A25A68F7a06b12a51C9B10B18E0a60
0.156000b43a26I3B33A76b7b04b03c2A58B02F8
0.157200a19a87g8A05A92I9h7b01a34E2A86A46
0.158400b7a69a45B3A76A64ha84a94b1A77B11
0.159600C8a89b55g8A98C30A82a39c65b96B0C24
0.160800C60I4b51c86a95A61C91C01b7c26c57a09
0.162000B03C25A71a09b75a92F0B58B33Hb21b66
0.163200i3A43B47A33i3b35a63F2B51B34A7b23
0.164400b87a24A35B72A73g3b50a97D4B66B67C3
0.165600b44c30a43A62C28B10i1c14b59C3C16C44
0.166800H4b54c94b23A11C34B72bb46b58d6A94
0.168000B58A01a27b34a48C5A48A10a4i0d6F2
0.169200A19E8f9a41i0C5A15G6d4a24g7F2
0.170400A71A44ga59a84f2A00A61G1h7a69i4
0.171600G8B07A79Ha74b24a07H0A84A31b8a55
0.172800a40DA57A91G2a03a96a36A9A36A20f
0.174000a20a08B5A63A71B4a61b25a02A06B19A32
0.175200h6b39a78F2B83B83D3b49c49a68A43C24
0.176400B22g4c02b57B3C05C38H6b40c71b02A18
0.177600C17B35d4b69b47@B53B95I1a80b99a78
0.178800F3B19A73a3a63a45A1A59A66C0a29a75
0.180000h1F2A29F8e1a16f0F9A59A23a3a47
0.181200a71f7G6A46I0c9a30a01B7A48A59D3
0.182400a11a85a22B4A35A24A1a00a09gA13A44
0.183600E1i0a61a05B5A15I1a2i1f4D1A23
0.184800I7b1a29a25a5I6A05@a12a16A0A58
0.186000A86E3a38b24a25G7B05A45e2b08a78B0
0.187200B20B47G1a64b63a51F9B09A56c0a83a63
0.188400HA81B05F1a25b04a19D8A50A09b6a29
0.189600a08A9A43A54D1a03a64i6C4A20I3a8
0.190800a11a00A1A32A56E6i5a78a25B1A40A33
0.192000Ha26a48b9A35B05A09h1b16a83a0A59
0.193200A83D9a20a76f4A15B08A27f1a99a74a5
0.194400A34A49C0a03a24a6A18A54E4i3a61i3
0.195600C9A15G2d1a09f0F3A47A09b3a35a35
0.196800b8H5A05B1h4a07b1I8A48H0d7a35
0.198000a15a5G5H3A2f5g7a1G7A13F5b4
0.199200i3i3c3C1E1B0b7d1gD9H4E9
0.200400a1g7h9d0B5E6B8c0e8a9F1A13
0.201600H3a8a14a27d5F3A03D3f0a08d4H3
0.202800A63A17b9a59a64d5I4A35D5h4a31d2
0.204000A03A79A10d9a69a53b5I8A15B0h7a00
0.205200cA15A48F3g0a42a01BG6E9a8g3
0.206400d6D3A14A03A4g7a07f1A1D5A8c0
0.207600d9a0E5I6G6He9h5e9a1B1B2
0.208800db3iC1G1G6C4c4h6h7d0A9
0.210000D5B4a6c0GF8I7E7c2a08a13d5
0.211200C8F8B6c5d8HI1A18E4e9a33a11
0.212400a8F2F3ae9d3D3A23A17B0i3a36
0.213600h2A5F7C5c5f5a5G8A32I3a1a04
0.214800a18e6A8D1Hc4c5A5H0A00F0a5
0.216000g1g8e1a9dc@A7D1E5D9B8
0.217200Cb1d5f4f6d2aC8E5D9C1B0
0.218400A8A5dd0g1g3d1DC7D7D2D2
0.219600D6C8Ed2g7g4c6AA6E@B3
0.220800F7I3F6hh6a10f8bC1A4a9a9
0.222000B9I2A10E7c5a02i9d2IA3a7c3
0.223200@F8A14I5A6f5i2f0a2Cb1d7
0.224400c3C0I9A22G4hg3h3d9a3eb1
0.225600c2a5B7G2I2G5C1b6g3i4h1d0
0.226800A0D4D3B0DB1F0H0D6c8a24a46
0.228000h5A8I1H8C0a8a0D4H6F0b9a22
0.229200a47h6A4H1G9C5BA3D8E9B2d7
0.230400a01a02e5AC6D2C8D4F0E7B9b0
0.231600f6h7g4d1fB1D2E3E3D1B5A4
0.232800Aa9e3i0a00f1B0A02A27H1@e0
0.234000c8A2D2Eg7a37a10bA13A59A07H
0.235200e9e3cB7@f4a07h4bH0A15I1
0.236400D0@b0b9d3e8e9c6aB2B5B2
0.237600C8F9H4E0b7a08a35h9cF3F7B5
0.238800iCE1H3E9a6i1a15g9a4C0C5
0.240000B2B4D9G4F4A1e6i6h6d2DB2
0.241200A6HA9D9G3F7B4c7i1a05g4a4
0.242400D1F2D3GeB0F3G9C0g1a57a56
0.243600e4H3A58A15ei7h0C6A41A31ha76
0.244800b36a33F0B00A86D7i1a17b1I5A17A7
0.246000a21a80a11B9A30A26D0c7d1A7F7D5
0.247200c9a20a25e0D7I9G8B0a8gB8D5
0.248400A5d6i4i1c9B7F8F9C7DeH
0.249600B3A6a9f8i6g5fG1A12H9B0d5
